17.06260 1.0
17.06460 1.0
17.06660 0.0
17.06860 2.0
17.07060 1.0
17.07260 0.0
17.07460 0.0
17.07660 1.0
17.07860 1.0
17.08060 1.0
17.08260 1.0
17.08460 4.0
17.08660 0.0
17.08860 1.0
17.09060 1.0
17.09260 0.0
17.09460 0.0
17.09660 2.0
17.09860 1.0
17.10060 0.0
17.10260 0.0
17.10460 0.0
17.10660 0.0
17.10860 2.0
17.11060 0.0
17.11260 3.0
17.11460 1.0
17.11660 2.0
17.11860 0.0
17.12060 3.0
17.12260 1.0
17.12460 2.0
17.12660 1.0
17.12860 1.0
17.13060 0.0
17.13260 2.0
17.13460 1.0
17.13660 1.0
17.13860 1.0
17.14060 1.0
17.14260 0.0
17.14460 1.0
17.14660 1.0
17.14860 0.0
17.15060 2.0
17.15260 1.0
17.15460 3.0
17.15660 0.0
17.15860 2.0
17.16060 0.0
17.16260 1.0
17.16460 1.0
17.16660 2.0
17.16860 1.0
17.17060 1.0
17.17260 1.0
17.17460 0.0
17.17660 0.0
17.17860 2.0
17.18060 3.0
17.18260 1.0
17.18460 4.0
17.18660 0.0
17.18860 1.0
17.19060 1.0
17.19260 1.0
17.19460 0.0
17.19660 1.0
17.19860 3.0
17.20060 3.0
17.20260 2.0
17.20460 1.0
17.20660 0.0
17.20860 4.0
17.21060 2.0
17.21260 3.0
17.21460 0.0
17.21660 1.0
17.21860 3.0
17.22060 1.0
17.22260 1.0
17.22460 6.0
17.22660 4.0
17.22860 3.0
17.23060 4.0
17.23260 2.0
17.23460 0.0
17.23660 4.0
17.23860 3.0
17.24060 1.0
17.24260 3.0
17.24460 2.0
17.24660 4.0
17.24860 1.0
17.25060 1.0
17.25260 5.0
17.25460 1.0
17.25660 4.0
17.25860 2.0
17.26060 2.0
17.26260 1.0
17.26460 6.0
17.26660 3.0
17.26860 3.0
17.27060 5.0
17.27260 2.0
17.27460 8.0
17.27660 2.0
17.27860 2.0
17.28060 4.0
17.28260 2.0
17.28460 5.0
17.28660 3.0
17.28860 5.0
17.29060 4.0
17.29260 4.0
17.29460 6.0
17.29660 3.0
17.29860 5.0
17.30060 4.0
17.30260 4.0
17.30460 5.0
17.30660 6.0
17.30860 4.0
17.31060 7.0
17.31260 4.0
17.31460 9.0
17.31660 9.0
17.31860 8.0
17.32060 8.0
17.32260 8.0
17.32460 17.0
17.32660 13.0
17.32860 13.0
17.33060 11.0
17.33260 20.0
17.33460 19.0
17.33660 11.0
17.33860 16.0
17.34060 17.0
17.34260 18.0
17.34460 20.0
17.34660 20.0
17.34860 25.0
17.35060 22.0
17.35260 36.0
17.35460 29.0
17.35660 30.0
17.35860 44.0
17.36060 50.0
17.36260 50.0
17.36460 80.0
17.36660 89.0
17.36860 106.0
17.37060 152.0
17.37260 215.0
17.37460 300.0
17.37660 396.0
17.37860 548.0
17.38060 707.0
17.38260 911.0
17.38460 1135.0
17.38660 1360.0
17.38860 1690.0
17.39060 2099.0
17.39260 2426.0
17.39460 2909.0
17.39660 3230.0
17.39860 3639.0
17.40060 3804.0
17.40260 4150.0
17.40460 4310.0
17.40660 4257.0
17.40860 3832.0
17.41060 3244.0
17.41260 2697.0
17.41460 2201.0
17.41660 1874.0
17.41860 1524.0
17.42060 1282.0
17.42260 1064.0
17.42460 928.0
17.42660 710.0
17.42860 661.0
17.43060 551.0
17.43260 434.0
17.43460 385.0
17.43660 320.0
17.43860 281.0
17.44060 280.0
17.44260 215.0
17.44460 188.0
17.44660 159.0
17.44860 123.0
17.45060 147.0
17.45260 105.0
17.45460 92.0
17.45660 84.0
17.45860 83.0
17.46060 65.0
17.46260 61.0
17.46460 60.0
17.46660 47.0
17.46860 34.0
17.47060 37.0
17.47260 35.0
17.47460 30.0
17.47660 22.0
17.47860 36.0
17.48060 32.0
17.48260 26.0
17.48460 21.0
17.48660 21.0
17.48860 17.0
17.49060 21.0
17.49260 15.0
17.49460 18.0
17.49660 13.0
17.49860 11.0
17.50060 19.0
17.50260 20.0
17.50460 9.0
17.50660 10.0
17.50860 4.0
17.51060 10.0
17.51260 16.0
17.51460 5.0
17.51660 7.0
17.51860 8.0
17.52060 6.0
17.52260 9.0
17.52460 10.0
17.52660 4.0
17.52860 6.0
17.53060 4.0
17.53260 0.0
17.53460 6.0
17.53660 5.0
17.53860 6.0
17.54060 4.0
17.54260 5.0
17.54460 4.0
17.54660 3.0
17.54860 5.0
17.55060 0.0
17.55260 2.0
17.55460 1.0
17.55660 2.0
17.55860 3.0
17.56060 1.0
17.56260 3.0
17.56460 1.0
17.56660 2.0
17.56860 3.0
17.57060 6.0
17.57260 5.0
17.57460 2.0
17.57660 1.0
17.57860 4.0
17.58060 5.0
17.58260 2.0
17.58460 1.0
17.58660 2.0
17.58860 2.0
17.59060 3.0
17.59260 3.0
17.59460 4.0
17.59660 4.0
17.59860 2.0
17.60060 4.0
17.60260 1.0
17.60460 1.0
17.60660 2.0
17.60860 1.0
17.61060 1.0
17.61260 2.0
17.61460 2.0
17.61660 1.0
17.61860 2.0
17.62060 0.0
17.62260 2.0
17.62460 2.0
17.62660 1.0
17.62860 1.0
17.63060 2.0
17.63260 0.0
17.63460 0.0
17.63660 3.0
17.63860 1.0
17.64060 1.0
17.64260 3.0
17.64460 0.0
17.64660 1.0
17.64860 2.0
17.65060 1.0
17.65260 1.0
17.65460 1.0
17.65660 0.0
17.65860 2.0
